iter	RMSE
0	0.9654233398
1	0.9417754631
2	0.9256996672
3	0.9145978837
4	0.9070726175
5	0.9018752444
6	0.8984177339
7	0.8958891505
8	0.8941588821
9	0.8928973207
10	0.8920555054
11	0.8913663483
12	0.8908925664
13	0.8905077176
14	0.8902410952
15	0.8900491119
16	0.8898959335
17	0.8897595042
18	0.8896473074
19	0.8895666031
20	0.8894843865
21	0.8894212702
22	0.8893825821
23	0.8893433293
24	0.8893024157
25	0.8892736148
26	0.8892479444
27	0.8892291126
28	0.8892138798
29	0.8891992702
30	0.8891877665
31	0.8891712879
32	0.8891604924
33	0.8891505547
34	0.8891449112
35	0.8891386863
36	0.8891309336
37	0.8891258235
38	0.8891215419
39	0.8891144251
40	0.8891103412
41	0.8891073989
42	0.889103331
43	0.8891006827
44	0.8890934967
45	0.8890905308
46	0.8890877189
47	0.8890860635
48	0.8890840189
49	0.8890803052
50	0.8890768424
51	0.8890737082
52	0.8890719695
53	0.8890699471
54	0.8890678282
55	0.889066917
56	0.8890654134
57	0.8890637774
58	0.8890613246
59	0.8890590978
60	0.8890571592
61	0.8890556643
62	0.8890544522
63	0.8890521383
64	0.8890511975
65	0.8890501327
66	0.8890470357
67	0.8890454811
68	0.8890435909
69	0.889042786
70	0.8890417402
71	0.8890411022
72	0.889040457
73	0.8890388667
74	0.8890378079
75	0.8890361014
76	0.8890353917
77	0.8890348671
78	0.8890338344
79	0.8890334414
80	0.8890325259
81	0.8890315988
82	0.8890305502
83	0.8890294176
84	0.8890268207
85	0.8890263127
86	0.8890243306
87	0.8890233589
88	0.8890220964
89	0.8890217342
90	0.8890206324
91	0.8890197825
92	0.8890189174
93	0.8890183919
94	0.8890176335
95	0.889015821
96	0.8890147354
97	0.8890143483
98	0.8890133609
99	0.8890122979
100	0.8890113699
101	0.889010281
102	0.8890095792
103	0.8890089729
104	0.8890080663
105	0.8890078144
106	0.8890072374
107	0.8890069142
108	0.8890064803
109	0.889005723
110	0.8890049962
111	0.8890039972
112	0.8890035004
113	0.8890032091
114	0.8890026885
115	0.8890023952
116	0.8890019654
117	0.8890015106
118	0.8890006644
119	0.8890002103
120	0.8889995573
121	0.8889984186
122	0.8889982529
123	0.8889981575
124	0.8889975015
125	0.8889966697
126	0.8889965408
127	0.8889964365
128	0.8889960738
129	0.8889956663
130	0.8889952713
131	0.8889947401
132	0.8889942512
133	0.8889941353
134	0.8889940831
135	0.8889934346
136	0.888992887
137	0.8889924219
138	0.8889921529
139	0.8889919394
140	0.8889916552
141	0.8889915321
142	0.8889914773
143	0.8889911961
144	0.8889908227
145	0.8889906272
146	0.8889905593
147	0.8889901398
148	0.8889895462
149	0.8889893796
150	0.8889893267
151	0.888989033
152	0.8889887558
153	0.8889884374
154	0.8889881006
155	0.8889880017
156	0.8889877989
157	0.8889874542
158	0.8889872901
159	0.8889872151
160	0.888987008
161	0.8889868546
162	0.8889867727
163	0.888986545
164	0.8889863923
165	0.8889860689
166	0.8889860069
167	0.8889858722
168	0.888985648
169	0.8889853882
170	0.8889853181
171	0.8889850678
172	0.8889848805
173	0.8889846563
174	0.8889845684
175	0.888984417
176	0.8889841923
177	0.8889841028
178	0.8889840741
179	0.8889837192
180	0.8889835419
181	0.8889834133
182	0.888983353
183	0.8889832613
184	0.8889830714
185	0.8889829548
186	0.8889828642
187	0.8889828008
188	0.8889827608
189	0.8889827346
190	0.8889826844
191	0.8889825264
192	0.8889824328
193	0.8889821527
194	0.888982127
195	0.8889819655
196	0.8889819332
197	0.8889818814
198	0.8889817478
199	0.8889815176
200	0.8889814971
201	0.8889814531
202	0.8889814037
203	0.8889813544
204	0.8889812377
205	0.8889810631
206	0.8889810235
207	0.8889808431
208	0.8889806654
209	0.8889805555
210	0.888980422
211	0.8889801813
212	0.8889801535
213	0.8889800572
214	0.8889799809
215	0.8889798258
216	0.8889797779
217	0.8889797655
218	0.8889797458
219	0.888979661
220	0.8889796128
221	0.8889796057
222	0.8889795712
223	0.88897956
224	0.8889795156
225	0.8889793257
226	0.888979148
227	0.8889791074
228	0.8889790492
229	0.8889789267
230	0.888978898
231	0.8889788843
232	0.8889787149
233	0.8889786646
234	0.8889785396
235	0.8889785159
236	0.8889784559
237	0.8889784439
238	0.8889783467
239	0.8889782482
240	0.8889781192
241	0.88897804
242	0.8889779795
243	0.8889779029
244	0.8889778635
245	0.8889777135
246	0.8889776759
247	0.8889775983
248	0.888977542
249	0.8889774811
250	0.888977462
251	0.888977355
252	0.8889773399
253	0.8889772018
254	0.8889771778
255	0.8889770766
256	0.8889770414
257	0.8889770343
258	0.8889770229
259	0.8889770049
260	0.8889769875
261	0.8889769666
262	0.8889769601
263	0.8889768999
264	0.8889768441
265	0.888976791
266	0.8889767853
267	0.8889767495
268	0.8889767402
269	0.8889767054
270	0.8889766329
271	0.8889765689
272	0.8889765371
273	0.8889764443
274	0.8889764046
275	0.8889763731
276	0.888976337
277	0.8889762863
278	0.8889762639
279	0.8889762413
280	0.888976182
281	0.8889761702
282	0.8889760888
283	0.8889760839
284	0.8889760751
285	0.8889760073
286	0.8889759708
287	0.888975959
288	0.8889759488
289	0.8889759201
290	0.8889759133
291	0.8889758316
292	0.888975823
293	0.8889758178
294	0.8889757946
295	0.8889757695
296	0.8889757656
297	0.8889757619
298	0.8889757144
299	0.8889756669
300	0.8889756642
301	0.8889756523
302	0.8889756157
303	0.8889755929
304	0.8889755551
305	0.888975515
306	0.8889754804
307	0.8889754147
308	0.8889753159
309	0.8889753033
310	0.888975294
311	0.8889752898
312	0.8889752723
313	0.8889752472
314	0.8889752448
315	0.8889752317
316	0.8889752204
317	0.8889752149
318	0.8889751876
319	0.8889751728
320	0.8889751348
321	0.8889751206
322	0.8889750748
323	0.8889750722
324	0.8889750682
325	0.8889750653
326	0.8889750202
327	0.8889750097
328	0.8889749943
329	0.888974981
330	0.8889749548
331	0.8889749135
332	0.8889749061
333	0.888974887
334	0.888974886
335	0.8889748829
336	0.8889748819
337	0.8889748689
338	0.8889748154
339	0.8889748047
340	0.8889747668
341	0.8889747249
342	0.888974664
343	0.8889746553
344	0.8889746149
345	0.8889746066
346	0.8889745826
347	0.8889745804
348	0.8889745718
349	0.8889745683
350	0.8889745575
351	0.8889745538
352	0.888974531
353	0.8889745229
354	0.8889744732
355	0.8889744707
356	0.888974465
357	0.888974452
358	0.8889744403
359	0.8889744206
360	0.8889744175
361	0.888974414
362	0.8889743994
363	0.8889743977
364	0.8889743953
365	0.8889743638
366	0.888974347
367	0.8889743419
368	0.888974336
369	0.8889743298
370	0.8889743279
371	0.8889743146
372	0.8889743097
373	0.8889743028
374	0.8889742832
375	0.8889742804
376	0.8889742795
377	0.8889742549
378	0.8889742351
379	0.8889742256
380	0.8889741973
381	0.8889741837
382	0.8889741808
383	0.8889741681
384	0.8889741619
385	0.8889741583
386	0.8889741465
387	0.8889741435
388	0.8889741423
389	0.8889741374
390	0.8889741327
391	0.8889741293
392	0.8889741286
393	0.8889741278
394	0.8889741273
395	0.8889740882
396	0.8889740861
397	0.888974075
398	0.8889740746
399	0.8889740731
400	0.8889740657
401	0.8889740554
402	0.8889740524
403	0.8889740498
404	0.8889740473
405	0.8889740456
406	0.8889740265
407	0.8889740257
408	0.8889740195
409	0.8889740028
410	0.8889740012
411	0.888973996
412	0.8889739905
413	0.8889739845
414	0.8889739841
415	0.8889739836
416	0.8889739807
417	0.8889739522
418	0.888973923
419	0.8889739064
420	0.8889739015
421	0.8889739006
422	0.8889738757
423	0.8889738439
424	0.8889738404
425	0.8889738369
426	0.8889738133
427	0.8889738029
428	0.8889738015
429	0.8889737846
430	0.888973766
431	0.8889737654
432	0.888973765
433	0.8889737637
434	0.8889737625
435	0.888973759
436	0.8889737293
437	0.8889737027
438	0.8889736946
439	0.888973685
440	0.8889736661
441	0.8889736604
442	0.8889736596
443	0.888973651
444	0.8889736469
445	0.8889736323
446	0.8889736227
447	0.8889736221
448	0.8889736212
449	0.8889736019
450	0.8889735928
451	0.8889735921
452	0.8889735744
453	0.888973561
454	0.8889735601
455	0.8889735477
456	0.888973541
457	0.8889735399
458	0.8889735282
459	0.8889735279
460	0.8889735259
461	0.8889735195
462	0.8889735181
463	0.8889735176
464	0.8889735125
465	0.888973512
466	0.8889734867
467	0.8889734794
468	0.8889734778
469	0.8889734686
470	0.8889734685
471	0.8889734673
472	0.8889734601
473	0.8889734597
474	0.88897345
475	0.8889734499
476	0.8889734302
477	0.8889734293
478	0.8889734283
479	0.8889734244
480	0.8889734237
481	0.888973423
482	0.8889734205
483	0.8889734079
484	0.8889734027
485	0.8889733977
486	0.888973392
487	0.8889733641
488	0.8889733545
489	0.8889733428
490	0.8889733398
491	0.8889733376
492	0.888973337
493	0.8889733368
494	0.8889733362
495	0.8889733355
496	0.8889733355
497	0.888973335
498	0.8889733349
499	0.8889733313
500	0.8889733304
501	0.8889733169
502	0.8889733166
503	0.8889733136
504	0.8889733119
505	0.8889733115
506	0.8889733113
507	0.8889733102
508	0.8889733041
509	0.8889732951
510	0.8889732915
511	0.8889732908
512	0.8889732892
513	0.8889732888
514	0.8889732884
515	0.8889732815
516	0.8889732811
517	0.8889732808
518	0.8889732765
519	0.8889732746
520	0.8889732744
521	0.8889732741
522	0.8889732736
523	0.8889732733
524	0.8889732629
525	0.8889732574
526	0.8889732568
527	0.8889732514
528	0.8889732512
529	0.888973235
530	0.8889732341
531	0.88897322
532	0.8889732169
533	0.8889732165
534	0.8889732087
535	0.8889732087
536	0.8889732071
537	0.8889732069
538	0.8889732063
539	0.8889731997
540	0.8889731902
541	0.8889731901
542	0.8889731899
543	0.8889731872
544	0.8889731798
545	0.888973179
546	0.8889731708
547	0.8889731702
548	0.8889731674
549	0.8889731601
550	0.8889731588
551	0.8889731586
552	0.8889731542
553	0.888973154
554	0.8889731514
555	0.8889731487
556	0.8889731472
557	0.8889731443
558	0.888973144
559	0.8889731396
560	0.8889731394
561	0.8889731385
562	0.8889731341
563	0.888973134
564	0.8889731237
565	0.8889731198
566	0.8889731192
567	0.888973113
568	0.8889731011
569	0.8889731008
570	0.8889731005
571	0.8889730984
572	0.8889730982
573	0.888973098
574	0.8889730978
575	0.8889730956
576	0.888973093
577	0.8889730918
578	0.8889730911
579	0.8889730886
580	0.8889730842
581	0.8889730837
582	0.888973083
583	0.8889730828
584	0.8889730806
585	0.8889730804
586	0.8889730784
587	0.8889730768
588	0.8889730767
589	0.8889730729
590	0.8889730728
591	0.8889730704
592	0.8889730689
593	0.8889730637
594	0.8889730624
595	0.8889730622
596	0.8889730619
597	0.8889730606
598	0.8889730594
599	0.8889730589
600	0.8889730587
601	0.8889730581
602	0.888973058
603	0.8889730554
604	0.8889730505
605	0.8889730505
606	0.8889730495
607	0.8889730409
608	0.8889730379
609	0.8889730372
610	0.888973037
611	0.8889730369
612	0.8889730349
613	0.8889730281
614	0.888973028
615	0.8889730242
616	0.888973024
617	0.8889730228
618	0.8889730205
619	0.8889730203
620	0.8889730203
621	0.8889730202
622	0.8889730201
623	0.888973019
624	0.888973016
625	0.888973015
626	0.8889730143
627	0.8889730136
628	0.8889730133
629	0.8889730133
630	0.8889730132
631	0.8889730132
632	0.8889730117
633	0.8889730113
634	0.8889730112
635	0.8889730112
636	0.8889730079
637	0.8889730078
638	0.8889730077
639	0.8889730056
640	0.8889730013
641	0.8889729991
642	0.8889729975
643	0.8889729972
644	0.8889729969
645	0.8889729921
646	0.888972991
647	0.8889729881
648	0.8889729843
649	0.8889729843
650	0.8889729836
651	0.8889729825
652	0.8889729819
653	0.8889729773
654	0.8889729756
655	0.8889729722
656	0.8889729701
657	0.888972968
658	0.8889729676
659	0.8889729676
660	0.8889729674
661	0.8889729673
662	0.8889729652
663	0.8889729614
664	0.888972959
665	0.8889729528
666	0.8889729526
667	0.8889729523
668	0.8889729517
669	0.8889729514
670	0.8889729506
671	0.8889729479
672	0.8889729464
673	0.8889729433
674	0.8889729433
675	0.8889729423
676	0.8889729408
677	0.8889729406
678	0.8889729401
679	0.8889729398
680	0.8889729398
681	0.8889729386
682	0.8889729369
683	0.8889729368
684	0.8889729361
685	0.8889729361
686	0.8889729359
687	0.8889729346
688	0.8889729335
689	0.8889729304
690	0.8889729288
691	0.8889729274
692	0.888972927
693	0.8889729265
694	0.8889729219
695	0.8889729165
696	0.8889729138
697	0.8889729128
698	0.8889729127
699	0.8889729127
700	0.8889729126
701	0.8889729125
702	0.8889729123
703	0.8889729121
704	0.8889729106
705	0.8889729101
706	0.8889729072
707	0.8889729072
708	0.888972905
709	0.8889729045
710	0.8889729045
711	0.8889729039
712	0.8889729034
713	0.8889729026
714	0.8889729024
715	0.8889729024
716	0.8889729015
717	0.8889729015
718	0.8889729002
719	0.8889728992
720	0.8889728987
721	0.8889728976
722	0.8889728969
723	0.8889728964
724	0.8889728955
725	0.8889728954
726	0.888972893
727	0.8889728921
728	0.8889728919
729	0.8889728907
730	0.8889728889
731	0.8889728874
732	0.888972887
733	0.8889728869
734	0.8889728861
735	0.8889728858
736	0.8889728858
737	0.8889728846
738	0.8889728845
739	0.8889728839
740	0.8889728839
741	0.8889728824
742	0.888972882
743	0.8889728813
744	0.8889728813
745	0.8889728812
746	0.88897288
747	0.8889728798
748	0.8889728787
749	0.8889728786
750	0.8889728772
751	0.888972877
752	0.8889728769
753	0.888972875
754	0.8889728749
755	0.8889728743
756	0.8889728743
757	0.888972874
758	0.8889728739
759	0.8889728722
760	0.8889728713
761	0.8889728702
762	0.8889728699
763	0.8889728699
764	0.8889728694
765	0.8889728693
766	0.888972868
767	0.8889728673
768	0.8889728672
769	0.888972867
770	0.8889728668
771	0.8889728653
772	0.8889728652
773	0.8889728652
774	0.8889728641
775	0.8889728636
776	0.8889728626
777	0.8889728618
778	0.8889728618
779	0.8889728618
780	0.8889728617
781	0.8889728615
782	0.8889728608
783	0.8889728607
784	0.8889728598
785	0.8889728597
786	0.8889728597
787	0.8889728597
788	0.8889728596
789	0.8889728595
790	0.8889728594
791	0.8889728594
792	0.8889728593
793	0.8889728592
794	0.8889728592
795	0.8889728588
796	0.8889728586
797	0.8889728586
798	0.8889728586
799	0.8889728574
800	0.8889728573
801	0.8889728573
802	0.888972857
803	0.8889728559
804	0.8889728558
805	0.8889728546
806	0.8889728546
807	0.8889728545
808	0.8889728545
809	0.8889728541
810	0.888972854
811	0.888972854
812	0.8889728538
813	0.8889728529
814	0.8889728529
815	0.8889728528
816	0.8889728525
817	0.8889728522
818	0.8889728519
819	0.8889728517
820	0.888972851
821	0.888972851
822	0.8889728509
823	0.8889728496
824	0.8889728494
825	0.8889728493
826	0.8889728491
827	0.8889728485
828	0.8889728485
829	0.8889728484
830	0.8889728471
831	0.8889728463
832	0.8889728453
833	0.8889728452
834	0.8889728452
835	0.8889728451
836	0.8889728451
837	0.888972845
838	0.888972845
839	0.8889728446
840	0.8889728446
841	0.8889728444
842	0.8889728443
843	0.8889728443
844	0.8889728443
845	0.8889728431
846	0.8889728431
847	0.8889728428
848	0.8889728428
849	0.8889728428
850	0.8889728418
851	0.8889728414
852	0.8889728414
853	0.888972841
854	0.8889728408
855	0.8889728401
856	0.888972839
857	0.888972839
858	0.888972839
859	0.888972838
860	0.8889728379
861	0.8889728377
862	0.8889728377
863	0.8889728377
864	0.8889728376
865	0.8889728375
866	0.8889728372
867	0.8889728372
868	0.8889728371
869	0.888972835
870	0.8889728344
871	0.8889728343
872	0.8889728342
873	0.8889728342
874	0.8889728339
875	0.8889728333
876	0.888972833
877	0.8889728326
878	0.8889728324
879	0.8889728324
880	0.8889728323
881	0.8889728323
882	0.8889728322
883	0.888972832
884	0.8889728319
885	0.8889728318
886	0.8889728316
887	0.8889728294
888	0.8889728274
889	0.8889728273
890	0.8889728273
891	0.8889728273
892	0.8889728271
893	0.8889728254
894	0.8889728253
895	0.8889728252
896	0.8889728251
897	0.8889728251
898	0.8889728251
899	0.888972825
900	0.8889728249
901	0.8889728249
902	0.8889728241
903	0.8889728238
904	0.8889728236
905	0.8889728227
906	0.8889728227
907	0.8889728225
908	0.8889728224
909	0.8889728224
910	0.8889728221
911	0.888972822
912	0.888972821
913	0.8889728207
914	0.88897282
915	0.888972819
916	0.8889728188
917	0.8889728185
918	0.8889728185
919	0.8889728185
920	0.8889728183
921	0.8889728182
922	0.8889728177
923	0.8889728177
924	0.8889728177
925	0.8889728176
926	0.8889728174
927	0.8889728168
928	0.8889728166
929	0.8889728162
930	0.8889728161
931	0.8889728158
932	0.8889728158
933	0.8889728156
934	0.8889728155
935	0.8889728155
936	0.8889728155
937	0.8889728154
938	0.8889728154
939	0.8889728154
940	0.8889728145
941	0.8889728145
942	0.8889728145
943	0.8889728144
944	0.8889728144
945	0.8889728135
946	0.8889728127
947	0.8889728127
948	0.8889728122
949	0.8889728122
950	0.8889728113
951	0.8889728106
952	0.88897281
953	0.88897281
954	0.88897281
955	0.88897281
956	0.88897281
957	0.8889728099
958	0.8889728092
959	0.8889728092
960	0.888972808
961	0.8889728075
962	0.8889728069
963	0.8889728069
964	0.8889728064
965	0.8889728064
966	0.8889728055
967	0.8889728049
968	0.8889728049
969	0.8889728045
970	0.8889728044
971	0.8889728044
972	0.8889728041
973	0.8889728039
974	0.8889728037
975	0.8889728037
976	0.8889728037
977	0.8889728031
978	0.8889728027
979	0.8889728027
980	0.888972802
981	0.8889728019
982	0.8889728017
983	0.8889728017
984	0.8889728015
985	0.8889728015
986	0.8889728011
987	0.8889728011
988	0.8889728011
989	0.8889728011
990	0.8889728008
991	0.8889728007
992	0.8889728007
993	0.8889728007
994	0.8889728002
995	0.8889728002
996	0.8889728002
997	0.8889727999
998	0.8889727998
999	0.8889727988

999	0.8842553989
.8591637791
