iter	Passed	Remaining
0	6167	6161791
1	11011	5494975
2	15206	5053641
3	19085	4752257
4	23355	4647790
5	26747	4431210
6	29955	4249364
7	34438	4270430
8	39104	4305835
9	43137	4270653
10	47354	4257571
11	52695	4338634
12	57146	4338714
13	61232	4312546
14	65996	4333764
15	70568	4339990
16	74833	4327113
17	83008	4528568
18	86894	4486506
19	90952	4456653
20	96088	4479555
21	101451	4509972
22	106445	4521623
23	112362	4569388
24	115773	4515177
25	119770	4486805
26	123357	4445452
27	126443	4389402
28	131022	4386978
29	134841	4359871
30	138438	4327309
31	142213	4301953
32	146862	4303519
33	151909	4316002
34	156170	4305836
35	160310	4292765
36	163008	4242626
37	167936	4251448
38	171824	4233932
39	176302	4231263
40	180754	4227895
41	187129	4268335
42	191896	4270813
43	195568	4249171
44	198593	4214595
45	201925	4187749
46	205541	4167674
47	209496	4155010
48	213321	4140170
49	218074	4143418
50	221840	4127965
51	225906	4118451
52	229969	4109086
53	234050	4100218
54	238314	4094674
55	241584	4072428
56	244990	4053092
57	249147	4046505
58	253588	4044518
59	257296	4030972
60	260642	4012192
61	264124	3995945
62	267292	3975445
63	270234	3952172
64	273435	3933261
65	276022	3906139
66	279273	3888987
67	282673	3874291
68	287745	3882473
69	291268	3869711
70	295345	3864447
71	298880	3852236
72	302068	3835862
73	306651	3837293
74	310737	3832423
75	315050	3830351
76	318537	3818318
77	323291	3821465
78	327547	3818627
79	332356	3822101
80	337647	3830836
81	342878	3838561
82	347474	3838963
83	351344	3831331
84	356723	3840026
85	360324	3829490
86	364717	3827441
87	368398	3817949
88	372572	3813634
89	376061	3802402
90	381005	3805869
91	385028	3800068
92	389181	3795568
93	393253	3790298
94	399516	3805921
95	403553	3800124
96	407442	3792996
97	410945	3782372
98	415650	3782843
99	419997	3779974
100	423095	3765968
101	427309	3761999
102	431037	3753790
103	434370	3742265
104	438087	3734173
105	441140	3720563
106	444474	3709490
107	448850	3707174
108	452549	3699280
109	456519	3693654
110	461011	3692243
111	465520	3690911
112	470662	3694492
113	474439	3687309
114	479851	3692773
115	482467	3676736
116	487406	3678464
117	491165	3671252
118	495841	3670890
119	499656	3664144
120	503644	3658706
121	506731	3646802
122	509563	3633226
123	513376	3626754
124	516355	3614488
125	519483	3603401
126	523033	3595337
127	526534	3587017
128	529498	3575141
129	532979	3566861
130	537389	3564820
131	541300	3559458
132	545466	3555785
133	548480	3544660
134	551251	3532091
135	554144	3520446
136	557322	3510723
137	560559	3501463
138	563453	3490166
139	566752	3481479
140	569951	3472258
141	573017	3462317
142	576502	3454983
143	580023	3447915
144	585174	3450513
145	588754	3443812
146	592282	3436848
147	597234	3438133
148	600761	3431192
149	604437	3425145
150	607696	3416780
151	611576	3411952
152	615381	3406718
153	618560	3398067
154	622266	3392356
155	625221	3382610
156	628098	3372528
157	631336	3364466
158	634355	3355300
159	637592	3347360
160	640830	3339484
161	644124	3331952
162	647029	3322477
163	649882	3312813
164	653200	3305590
165	656639	3299019
166	659357	3288888
167	662442	3280666
168	665724	3273472
169	669246	3267499
170	672175	3258675
171	675260	3250673
172	678492	3243427
173	681908	3237103
174	685003	3229300
175	688398	3222954
176	691248	3214109
177	693979	3204779
178	696603	3195035
179	699979	3188794
180	702925	3180641
181	706177	3173920
182	708749	3164200
183	711759	3156499
184	714917	3149501
185	718159	3142912
186	720610	3132922
187	723422	3124569
188	726216	3116196
189	728666	3106422
190	731784	3099549
191	735142	3093726
192	738329	3087210
193	741331	3079963
194	744560	3073699
195	747359	3065700
196	750309	3058366
197	753106	3050462
198	756131	3043522
199	759364	3037456
200	762136	3029588
201	764851	3021541
202	767894	3014838
203	770363	3005928
204	773498	2999665
205	776774	2993973
206	779322	2985519
207	782290	2978720
208	785764	2973873
209	789363	2969508
210	792484	2963364
211	795869	2958232
212	798195	2949200
213	801500	2943827
214	804938	2938963
215	808445	2934357
216	811357	2927618
217	813830	2919336
218	816888	2913196
219	819852	2906749
220	823188	2901645
221	825694	2893651
222	828735	2887567
223	831597	2880893
224	834196	2873342
225	837281	2867503
226	840368	2861693
227	843440	2855859
228	846163	2848873
229	849120	2842708
230	852363	2837521
231	855168	2830903
232	858415	2825769
233	861203	2819153
234	864106	2812941
235	866488	2805072
236	869372	2798866
237	872154	2792360
238	875213	2786766
239	878274	2781202
240	881451	2776025
241	884134	2769313
242	887050	2763362
243	889536	2756103
244	891845	2748340
245	894847	2742743
246	897756	2736884
247	900600	2730852
248	903838	2726036
249	906911	2720735
250	909626	2714382
251	912516	2708579
252	915149	2702040
253	918485	2697597
254	920996	2690755
255	924107	2685687
256	926958	2679884
257	929657	2673667
258	932335	2667414
259	935033	2661249
260	937906	2655605
261	940788	2650008
262	943179	2643055
263	946058	2637495
264	949352	2633109
265	951971	2626869
266	954675	2620886
267	957603	2615543
268	960446	2609986
269	963444	2604869
270	966275	2599316
271	969277	2594243
272	972128	2588780
273	975322	2584249
274	978177	2578832
275	981422	2574456
276	984592	2569892
277	988003	2565966
278	990972	2560899
279	994305	2556785
280	997820	2553142
281	1000930	2548467
282	1004225	2544273
283	1007101	2539030
284	1010049	2533982
285	1012984	2528919
286	1015876	2523763
287	1018848	2518818
288	1021671	2513525
289	1024693	2508731
290	1027277	2502886
291	1030288	2498097
292	1032947	2492471
293	1035833	2487409
294	1038861	2482702
295	1042105	2478522
296	1045040	2473615
297	1047825	2468368
298	1051256	2464651
299	1054939	2461526
300	1057744	2456356
301	1060569	2451250
302	1063551	2446519
303	1066725	2442239
304	1069930	2438037
305	1072990	2433514
306	1075529	2427822
307	1078482	2423083
308	1081706	2418962
309	1084555	2414009
310	1087283	2408804
311	1089941	2403461
312	1092760	2398486
313	1095485	2393321
314	1097951	2387609
315	1100369	2381812
316	1103004	2376506
317	1105849	2371665
318	1108996	2367482
319	1111890	2362766
320	1114813	2358126
321	1117871	2353778
322	1120387	2348303
323	1122739	2342505
324	1125101	2336749
325	1127722	2331549
326	1130950	2327614
327	1133938	2323191
328	1137197	2319329
329	1140333	2315223
330	1143453	2311089
331	1146585	2306984
332	1149589	2302631
333	1152561	2298221
334	1154491	2291750
335	1156926	2286307
336	1159065	2280297
337	1161739	2275359
338	1165063	2271702
339	1167546	2266413
340	1170409	2261877
341	1173796	2258357
342	1177154	2254782
343	1180020	2250271
344	1182992	2245970
345	1185908	2241572
346	1188875	2237277
347	1191468	2232292
348	1194076	2227345
349	1196117	2221361
350	1198551	2216124
351	1200802	2210568
352	1203815	2206426
353	1206551	2201786
354	1209844	2198168
355	1212946	2194207
356	1215889	2189962
357	1218533	2185192
358	1221491	2180991
359	1224539	2176959
360	1226902	2171719
361	1229243	2166455
362	1232115	2162142
363	1234513	2157007
364	1237008	2152055
365	1239830	2147684
366	1242446	2142966
367	1245073	2138277
368	1247721	2133637
369	1250172	2128671
370	1252608	2123694
371	1255189	2118975
372	1257662	2114086
373	1260155	2109244
374	1262852	2104754
375	1265238	2099757
376	1267706	2094910
377	1270683	2090913
378	1273350	2086413
379	1275805	2081578
380	1278648	2077384
381	1281099	2072564
382	1283632	2067888
383	1286162	2063218
384	1288676	2058535
385	1291247	2053953
386	1293822	2049388
387	1296457	2044928
388	1299033	2040384
389	1301534	2035733
390	1304058	2031128
391	1306186	2025921
392	1308686	2021304
393	1311419	2017055
394	1313754	2012206
395	1316541	2008058
396	1318927	2003307
397	1321237	1998455
398	1323452	1993471
399	1325724	1988586
400	1328281	1984141
401	1331020	1979976
402	1333484	1975410
403	1336162	1971169
404	1338613	1966605
405	1340725	1961554
406	1343388	1957319
407	1345999	1953019
408	1348648	1948780
409	1351281	1944527
410	1353443	1939606
411	1355810	1934992
412	1358338	1930617
413	1360684	1925992
414	1362891	1921183
415	1365289	1916655
416	1367644	1912079
417	1370460	1908153
418	1372927	1903748
419	1375511	1899516
420	1378205	1895441
421	1380631	1891007
422	1383258	1886855
423	1386014	1882887
424	1388634	1878741
425	1390976	1874226
426	1393708	1870245
427	1396131	1865857
428	1398293	1861132
429	1400661	1856691
430	1403296	1852611
431	1405411	1847855
432	1407491	1843066
433	1409741	1838510
434	1412428	1834533
435	1414925	1830316
436	1417800	1826594
437	1420754	1822976
438	1423187	1818696
439	1425699	1814526
440	1428731	1811022
441	1431367	1807020
442	1433648	1802578
443	1436400	1798736
444	1439189	1794944
445	1442062	1791261
446	1444569	1787129
447	1446939	1782836
448	1449210	1778429
449	1451807	1774431
450	1454486	1770538
451	1457270	1766778
452	1460165	1763157
453	1462704	1759111
454	1464917	1754680
455	1468341	1751706
456	1471281	1748152
457	1473248	1743450
458	1475934	1739609
459	1478325	1735425
460	1480872	1731432
461	1483439	1727468
462	1485786	1723255
463	1488064	1718971
464	1490602	1714993
465	1492865	1710708
466	1495625	1706998
467	1498211	1703095
468	1500788	1699187
469	1503311	1695223
470	1505660	1691071
471	1507787	1686677
472	1510552	1683004
473	1512974	1678954
474	1515909	1675479
475	1518398	1671514
476	1520999	1667678
477	1523444	1663677
478	1525626	1659397
479	1528103	1655445
480	1530789	1651724
481	1533108	1647614
482	1535667	1643768
483	1538299	1640005
484	1541051	1636373
485	1544011	1632966
486	1546785	1629364
487	1549736	1625952
488	1552326	1622165
489	1555203	1618680
490	1558066	1615184
491	1560358	1611102
492	1562594	1606968
493	1564711	1602720
494	1566894	1598548
495	1569435	1594749
496	1571877	1590853
497	1574208	1586853
498	1576551	1582870
499	1578947	1578947
500	1581058	1574746
501	1583790	1571170
502	1586102	1567183
503	1588630	1563413
504	1591172	1559663
505	1593493	1555703
506	1595683	1551621
507	1597818	1547493
508	1600231	1543641
509	1602940	1540080
510	1605628	1536501
511	1608081	1532702
512	1610227	1528617
513	1612550	1524707
514	1614979	1520903
515	1618008	1517666
516	1620340	1513780
517	1622674	1509901
518	1624984	1506007
519	1627413	1502227
520	1629918	1498523
521	1632221	1494640
522	1634896	1491101
523	1637126	1487160
524	1639757	1483589
525	1642369	1480006
526	1644805	1476267
527	1647089	1472398
528	1649529	1468673
529	1652165	1465128
530	1654418	1461246
531	1657226	1457860
532	1660113	1454546
533	1662663	1450938
534	1665213	1447335
535	1667498	1443506
536	1670191	1440034
537	1672223	1435998
538	1674453	1432138
539	1677025	1428577
540	1679900	1425276
541	1682412	1421669
542	1684902	1418048
543	1687345	1414392
544	1690309	1411176
545	1692395	1407229
546	1694795	1403550
547	1696600	1399385
548	1698830	1395578
549	1701295	1391968
550	1703368	1388044
551	1705190	1383922
552	1707307	1380047
553	1709233	1376025
554	1711505	1372287
555	1713593	1368409
556	1715753	1364594
557	1718030	1360877
558	1720216	1357094
559	1722289	1353227
560	1724193	1349234
561	1726077	1345234
562	1728215	1341439
563	1730187	1337520
564	1732511	1333880
565	1734905	1330298
566	1736933	1326441
567	1739264	1322820
568	1741504	1319135
569	1743343	1315153
570	1745354	1311308
571	1747556	1307611
572	1749638	1303831
573	1751548	1299930
574	1753505	1296068
575	1755368	1292145
576	1757308	1288286
577	1759390	1284537
578	1761360	1280713
579	1763451	1276981
580	1765720	1273385
581	1767623	1269530
582	1769564	1265709
583	1771455	1261858
584	1773427	1258072
585	1775280	1254208
586	1777365	1250514
587	1779709	1247007
588	1781667	1243234
589	1783645	1239482
590	1785452	1235617
591	1787442	1231886
592	1789690	1228337
593	1792052	1224870
594	1794001	1221127
595	1796050	1217456
596	1797885	1213647
597	1799779	1209885
598	1801745	1206176
599	1803412	1202274
600	1805459	1198632
601	1807367	1194904
602	1809362	1191238
603	1811577	1187723
604	1813676	1184136
605	1815713	1180513
606	1817663	1176839
607	1820181	1173538
608	1822096	1169851
609	1824302	1166357
610	1826232	1162691
611	1828100	1158991
612	1830284	1155497
613	1832582	1152079
614	1834357	1148337
615	1836418	1144780
616	1838429	1141197
617	1840417	1137604
618	1842358	1133987
619	1844421	1130452
620	1846420	1126881
621	1848134	1123143
622	1850029	1119520
623	1852242	1116094
624	1854454	1112672
625	1856471	1109138
626	1858791	1105788
627	1860869	1102298
628	1862761	1098703
629	1864677	1095127
630	1866624	1091575
631	1868309	1087876
632	1870558	1084510
633	1872634	1081047
634	1874646	1077552
635	1876429	1073931
636	1878761	1070628
637	1880657	1067081
638	1882596	1063563
639	1884683	1060134
640	1886959	1056815
641	1888894	1053308
642	1890979	1049890
643	1892851	1046359
644	1894914	1042937
645	1897260	1039675
646	1899350	1036276
647	1901581	1032957
648	1904025	1029757
649	1905875	1026240
650	1907983	1022866
651	1910060	1019480
652	1912095	1016075
653	1914258	1012742
654	1916519	1009464
655	1918664	1006128
656	1920597	1002686
657	1922672	999322
658	1924770	995973
659	1926581	992481
660	1928487	989042
661	1930533	985680
662	1932417	982239
663	1934881	979096
664	1936922	975743
665	1939139	972481
666	1941078	969084
667	1943171	965767
668	1945203	962425
669	1947143	959040
670	1949113	955675
671	1951028	952287
672	1953099	948979
673	1955385	945780
674	1957449	942475
675	1959432	939136
676	1961423	935804
677	1963569	932550
678	1965592	929241
679	1967588	925923
680	1969522	922581
681	1971365	919199
682	1973267	915850
683	1975122	912483
684	1977254	909248
685	1978951	905817
686	1981038	902569
687	1983115	899319
688	1985085	896025
689	1987355	892869
690	1989519	889669
691	1991480	886381
692	1993372	883067
693	1995211	879733
694	1997554	876624
695	1999850	873498
696	2002163	870380
697	2004274	867179
698	2006464	864013
699	2008178	860648
700	2010290	857456
701	2012269	854211
702	2014290	850987
703	2015843	847570
704	2017619	844252
705	2019234	840870
706	2020732	837446
707	2022298	834055
708	2023969	830712
709	2025624	827367
710	2027188	823990
711	2028874	820668
712	2030516	817332
713	2031792	813855
714	2033249	810456
715	2034551	807000
716	2036072	803638
717	2037538	800258
718	2039191	796957
719	2040764	793630
720	2042159	790239
721	2043755	786930
722	2045098	783530
723	2046624	780205
724	2047999	776827
725	2049337	773441
726	2051117	770227
727	2052737	766956
728	2054343	763686
729	2055818	760371
730	2057445	757117
731	2059003	753842
732	2060569	750575
733	2062172	747326
734	2063840	744105
735	2065325	740823
736	2066750	737524
737	2068178	734231
738	2069528	730916
739	2070982	727642
740	2072361	724347
741	2074026	721157
742	2075539	717918
743	2076981	714660
744	2078355	711383
745	2079699	708101
746	2081395	704943
747	2083028	701769
748	2084556	698563
749	2085870	695290
750	2087541	692140
751	2089065	688947
752	2090590	685758
753	2092208	682603
754	2093776	679437
755	2095333	676271
756	2096656	673034
757	2098180	669867
758	2099506	666641
759	2101031	663483
760	2102667	660364
761	2104207	657219
762	2105574	654024
763	2107094	650882
764	2108461	647697
765	2109883	644533
766	2111397	641402
767	2112896	638270
768	2114171	635076
769	2115449	631887
770	2116858	628742
771	2118327	625619
772	2119768	622493
773	2121121	619345
774	2122719	616273
775	2124261	613188
776	2125818	610112
777	2127575	607097
778	2128939	603973
779	2130370	600873
780	2131735	597759
781	2133243	594689
782	2134739	591620
783	2136187	588541
784	2137838	585522
785	2139194	582426
786	2140493	579320
787	2142085	576297
788	2143599	573256
789	2145147	570229
790	2146699	567206
791	2148081	564142
792	2149791	561168
793	2151241	558130
794	2152566	555064
795	2154071	552048
796	2155593	549040
797	2156845	545968
798	2158156	542915
799	2159718	539929
800	2161223	536933
801	2162753	533946
802	2164087	530915
803	2165609	527934
804	2167072	524943
805	2168656	521984
806	2169930	518954
807	2171514	516003
808	2172813	512988
809	2174366	510036
810	2175933	507091
811	2177222	504085
812	2178685	501124
813	2180114	498158
814	2181591	495207
815	2182989	492242
816	2184666	489343
817	2186165	486408
818	2187698	483483
819	2189009	480514
820	2190626	477615
821	2192017	474670
822	2193414	471730
823	2195004	468835
824	2196644	465954
825	2198232	463065
826	2199649	460144
827	2201168	457247
828	2202470	454309
829	2203954	451412
830	2205484	448528
831	2207063	445656
832	2208741	442808
833	2210259	439931
834	2211631	437028
835	2212979	434125
836	2214396	431238
837	2215745	428342
838	2217115	425453
839	2218640	422598
840	2219918	419699
841	2221317	416826
842	2222680	413951
843	2223899	411052
844	2225262	408184
845	2226807	405352
846	2228139	402485
847	2229651	399654
848	2231331	396856
849	2232291	393933
850	2233378	391037
851	2234272	388113
852	2235094	385180
853	2235979	382263
854	2236758	379333
855	2237676	376431
856	2238572	373530
857	2239473	370635
858	2240332	367737
859	2241242	364853
860	2242141	361971
861	2242972	359083
862	2243838	356206
863	2244651	353324
864	2245385	350435
865	2246238	347570
866	2247131	344715
867	2247887	341844
868	2248805	339002
869	2249732	336166
870	2250723	333344
871	2251586	330508
872	2252509	327684
873	2253275	324842
874	2254183	322026
875	2255135	319220
876	2256021	316408
877	2256882	313598
878	2257717	310789
879	2258524	307980
880	2259471	305195
881	2260354	302405
882	2261108	299603
883	2261992	296822
884	2262784	294034
885	2263603	291253
886	2264416	288476
887	2265302	285713
888	2266311	282970
889	2267175	280212
890	2267933	277446
891	2268816	274699
892	2269827	271972
893	2270786	269243
894	2271600	266500
895	2272493	263771
896	2273216	261027
897	2274108	258306
898	2274954	255584
899	2275716	252857
900	2276582	250146
901	2277411	247434
902	2278251	244729
903	2279171	242035
904	2280039	239341
905	2280930	236652
906	2281848	233971
907	2282742	231291
908	2283559	228607
909	2284257	225915
910	2285128	223245
911	2285937	220572
912	2286901	217919
913	2287931	215275
914	2288868	212627
915	2289774	209979
916	2290639	207331
917	2291533	204690
918	2292350	202046
919	2293061	199396
920	2293958	196767
921	2294718	194130
922	2295662	191512
923	2296534	188892
924	2297394	186275
925	2298243	183660
926	2299060	181047
927	2300053	178452
928	2300973	175854
929	2301787	173252
930	2302793	170668
931	2303692	168080
932	2304555	165493
933	2305439	162911
934	2306398	160337
935	2307178	157755
936	2307946	155176
937	2308757	152604
938	2309589	150037
939	2310421	147473
940	2311274	144915
941	2312124	142360
942	2312858	139801
943	2313708	137253
944	2314512	134707
945	2315407	132169
946	2316576	129650
947	2317699	127131
948	2318972	124623
949	2319857	122097
950	2320752	119576
951	2321707	117060
952	2322622	114546
953	2323535	112036
954	2324390	109526
955	2325487	107030
956	2326485	104533
957	2327594	102044
958	2328762	99561
959	2329819	97075
960	2330945	94596
961	2332199	92124
962	2333164	89643
963	2334086	87165
964	2335085	84692
965	2335993	82219
966	2336833	79747
967	2337730	77280
968	2338437	74810
969	2339429	72353
970	2340349	69897
971	2341229	67442
972	2342174	64993
973	2343264	62551
974	2344343	60111
975	2345085	57666
976	2345885	55225
977	2346830	52791
978	2347858	50362
979	2348922	47937
980	2350021	45515
981	2350873	43091
982	2351848	40672
983	2352724	38255
984	2353633	35842
985	2354562	33431
986	2355470	31024
987	2356243	28618
988	2357168	26217
989	2358275	23820
990	2359281	21426
991	2360304	19034
992	2361305	16645
993	2362373	14259
994	2363494	11876
995	2364366	9495
996	2365256	7117
997	2366206	4741
998	2367318	2369
999	2368674	0
